MeV             MeV*cm2/g      alpha (into G4_Cu, density = 8.96 g/cm3 )

0.001           60.7609
0.00113122      62.605
0.00127965      64.7216
0.00144756      67.0138
0.00163751      69.3265
0.00185237      71.783
0.00209544      74.3344
0.00237039      76.9728
0.00268143      79.7444
0.00303328      82.655
0.00343129      85.7318
0.00388153      88.9832
0.00439085      92.4277
0.00496701      96.0653
0.00561876      99.9502
0.00635604      104.067
0.00719005      108.536
0.00813351      113.25
0.00920076      118.239
0.0104081       123.651
0.0117738       129.428
0.0133187       135.664
0.0150663       142.444
0.0170433       149.586
0.0192796       157.148
0.0218094       165.517
0.0246712       174.356
0.0279084       184.047
0.0315705       194.182
0.0357131       205.259
0.0403992       217.171
0.0457002       229.84
0.0516969       243.339
0.0584804       257.911
0.0661539       273.453
0.0748344       290.056
0.084654        307.671
0.095762        326.332
0.108328        346.336
0.122542        367.537
0.138621        389.757
0.156811        412.973
0.177387        437.119
0.200663        462.217
0.226993        488.354
0.256779        514.933
0.290472        541.904
0.328587        568.616
0.371703        594.784
0.420477        619.753
0.47565         642.823
0.538064        663.312
0.608666        680.494
0.688534        693.805
0.778881        702.806
0.881083        706.965
0.996695        706.362
1.12748         701.278
1.27542         691.813
1.44278         678.522
1.6321          661.918
1.84625         642.347
2.08851         620.559
2.36256         597.359
2.67257         572.779
3.02325         546.896
3.41995         519.71
3.86871         491.577
4.37634         462.758
4.95059         433.709
5.60019         404.474
6.33503         375.69
7.16629         348.997
8.10663         325.507
9.17035         299.984
10.3737         277.362
11.7349         254.91
13.2747         234.506
15.0165         216.128
16.9869         198.11
19.2159         182.1
21.7373         167.557
24.5896         153.376
27.8162         140.286
31.4662         128.771
35.595          117.377
40.2657         107.172
45.5492         97.7552
51.526          88.6817
58.2871         80.618
65.9353         73.3208
74.5871         66.7021
84.3742         61.0344
95.4455         55.756
107.97          50.8979
122.137         46.4378
138.163         42.3738
156.293         38.6132
176.801         35.1985
200             32.1073
